# z (nm)   (kJ/mol)
  0.4850    6.99640
  0.4870    6.74810
  0.4890    6.48120
  0.4910    6.24060
  0.4930    5.99980
  0.4950    5.75370
  0.4970    5.50920
  0.4990    5.27430
  0.5010    5.05080
  0.5030    4.83610
  0.5050    4.62950
  0.5070    4.42880
  0.5090    4.23470
  0.5110    4.04860
  0.5130    3.87050
  0.5150    3.70030
  0.5170    3.53900
  0.5190    3.38770
  0.5210    3.24650
  0.5230    3.11350
  0.5250    2.98880
  0.5270    2.87370
  0.5290    2.77090
  0.5310    2.68010
  0.5330    2.60070
  0.5350    2.53440
  0.5370    2.48310
  0.5390    2.44870
  0.5410    2.42890
  0.5430    2.42080
  0.5450    2.42410
  0.5470    2.43690
  0.5490    2.45730
  0.5510    2.48330
  0.5530    2.51340
  0.5550    2.54740
  0.5570    2.58370
  0.5590    2.62360
  0.5610    2.66870
  0.5630    2.71430
  0.5650    2.76370
  0.5670    2.82120
  0.5690    2.88170
  0.5710    2.94570
  0.5730    3.01080
  0.5750    3.07700
  0.5770    3.14990
  0.5790    3.22520
  0.5810    3.30270
  0.5830    3.38390
  0.5850    3.46520
  0.5870    3.54970
  0.5890    3.64070
  0.5910    3.72720
  0.5930    3.81400
  0.5950    3.90910
  0.5970    4.00640
  0.5990    4.10190
  0.6010    4.19910
  0.6030    4.29770
  0.6050    4.38500
  0.6070    4.45590
  0.6090    4.51650
  0.6110    4.56860
  0.6130    4.60440
  0.6150    4.62420
  0.6170    4.62950
  0.6190    4.61830
  0.6210    4.58980
  0.6230    4.54760
  0.6250    4.48940
  0.6270    4.41350
  0.6290    4.32210
  0.6310    4.21670
  0.6330    4.09660
  0.6350    3.96080
  0.6370    3.81070
  0.6390    3.64770
  0.6410    3.47190
  0.6430    3.28250
  0.6450    3.07940
  0.6470    2.86680
  0.6490    2.64980
  0.6510    2.42400
  0.6530    2.19070
  0.6550    1.95650
  0.6570    1.71640
  0.6590    1.47290
  0.6610    1.23010
  0.6630    0.98580
  0.6650    0.74040
  0.6670    0.49420
  0.6690    0.24810
  0.6710    0.00060
  0.6730   -0.24510
  0.6750   -0.48910
  0.6770   -0.73420
  0.6790   -0.97910
  0.6810   -1.22320
  0.6830   -1.46340
  0.6850   -1.69630
  0.6870   -1.92610
  0.6890   -2.15390
  0.6910   -2.37810
  0.6930   -2.59970
  0.6950   -2.81610
  0.6970   -3.02600
  0.6990   -3.23290
  0.7010   -3.43260
  0.7030   -3.62410
  0.7050   -3.81040
  0.7070   -3.99270
  0.7090   -4.16820
  0.7110   -4.33340
  0.7130   -4.49160
  0.7150   -4.64160
  0.7170   -4.78300
  0.7190   -4.91730
  0.7210   -5.04300
  0.7230   -5.16010
  0.7250   -5.26780
  0.7270   -5.36680
  0.7290   -5.45900
  0.7310   -5.54510
  0.7330   -5.62210
  0.7350   -5.69030
  0.7370   -5.75260
  0.7390   -5.80670
  0.7410   -5.85250
  0.7430   -5.89250
  0.7450   -5.92530
  0.7470   -5.94980
  0.7490   -5.96790
  0.7510   -5.98000
  0.7530   -5.98630
  0.7550   -5.98740
  0.7570   -5.98250
  0.7590   -5.97220
  0.7610   -5.95770
  0.7630   -5.93780
  0.7650   -5.91200
  0.7670   -5.88270
  0.7690   -5.84970
  0.7710   -5.81270
  0.7730   -5.77170
  0.7750   -5.72620
  0.7770   -5.67770
  0.7790   -5.62650
  0.7810   -5.57230
  0.7830   -5.51550
  0.7850   -5.45550
  0.7870   -5.39280
  0.7890   -5.32800
  0.7910   -5.26120
  0.7930   -5.19260
  0.7950   -5.12180
  0.7970   -5.04990
  0.7990   -4.97680
  0.8010   -4.90220
  0.8030   -4.82630
  0.8050   -4.74980
  0.8070   -4.67240
  0.8090   -4.59430
  0.8110   -4.51530
  0.8130   -4.43590
  0.8150   -4.35590
  0.8170   -4.27510
  0.8190   -4.19440
  0.8210   -4.11370
  0.8230   -4.03290
  0.8250   -3.95200
  0.8270   -3.87140
  0.8290   -3.79150
  0.8310   -3.71160
  0.8330   -3.63230
  0.8350   -3.55360
  0.8370   -3.47560
  0.8390   -3.39850
  0.8410   -3.32190
  0.8430   -3.24590
  0.8450   -3.17100
  0.8470   -3.09750
  0.8490   -3.02500
  0.8510   -2.95340
  0.8530   -2.88290
  0.8550   -2.81370
  0.8570   -2.74600
  0.8590   -2.67990
  0.8610   -2.61500
  0.8630   -2.55210
  0.8650   -2.49090
  0.8670   -2.43100
  0.8690   -2.37280
  0.8710   -2.31690
  0.8730   -2.26300
  0.8750   -2.21050
  0.8770   -2.15940
  0.8790   -2.11050
  0.8810   -2.06380
  0.8830   -2.01910
  0.8850   -1.97610
  0.8870   -1.93440
  0.8890   -1.89400
  0.8910   -1.85560
  0.8930   -1.81900
  0.8950   -1.78390
  0.8970   -1.75110
  0.8990   -1.72000
  0.9010   -1.69020
  0.9030   -1.66180
  0.9050   -1.63480
  0.9070   -1.60930
  0.9090   -1.58530
  0.9110   -1.56270
  0.9130   -1.54200
  0.9150   -1.52260
  0.9170   -1.50440
  0.9190   -1.48750
  0.9210   -1.47180
  0.9230   -1.45730
  0.9250   -1.44410
  0.9270   -1.43200
  0.9290   -1.42030
  0.9310   -1.40950
  0.9330   -1.39980
  0.9350   -1.39080
  0.9370   -1.38240
  0.9390   -1.37530
  0.9410   -1.36910
  0.9430   -1.36340
  0.9450   -1.35820
  0.9470   -1.35370
  0.9490   -1.34970
  0.9510   -1.34590
  0.9530   -1.34280
  0.9550   -1.34020
  0.9570   -1.33800
  0.9590   -1.33610
  0.9610   -1.33440
  0.9630   -1.33320
  0.9650   -1.33210
  0.9670   -1.33130
  0.9690   -1.33080
  0.9710   -1.33050
  0.9730   -1.33010
  0.9750   -1.33000
  0.9770   -1.33000
  0.9790   -1.33010
  0.9810   -1.33020
  0.9830   -1.33020
  0.9850   -1.33020
  0.9870   -1.33040
  0.9890   -1.33070
  0.9910   -1.33090
  0.9930   -1.33100
  0.9950   -1.33100
  0.9970   -1.33100
  0.9990   -1.33090
  1.0010   -1.33070
  1.0030   -1.33030
  1.0050   -1.32990
  1.0070   -1.32930
  1.0090   -1.32860
  1.0110   -1.32780
  1.0130   -1.32700
  1.0150   -1.32580
  1.0170   -1.32430
  1.0190   -1.32290
  1.0210   -1.32140
  1.0230   -1.31980
  1.0250   -1.31800
  1.0270   -1.31600
  1.0290   -1.31380
  1.0310   -1.31150
  1.0330   -1.30910
  1.0350   -1.30640
  1.0370   -1.30340
  1.0390   -1.30020
  1.0410   -1.29680
  1.0430   -1.29330
  1.0450   -1.28950
  1.0470   -1.28540
  1.0490   -1.28100
  1.0510   -1.27640
  1.0530   -1.27150
  1.0550   -1.26630
  1.0570   -1.26080
  1.0590   -1.25500
  1.0610   -1.24900
  1.0630   -1.24260
  1.0650   -1.23570
  1.0670   -1.22860
  1.0690   -1.22120
  1.0710   -1.21330
  1.0730   -1.20520
  1.0750   -1.19680
  1.0770   -1.18820
  1.0790   -1.17900
  1.0810   -1.16960
  1.0830   -1.15980
  1.0850   -1.14950
  1.0870   -1.13890
  1.0890   -1.12790
  1.0910   -1.11640
  1.0930   -1.10470
  1.0950   -1.09260
  1.0970   -1.08020
  1.0990   -1.06740
  1.1010   -1.05430
  1.1030   -1.04090
  1.1050   -1.02720
  1.1070   -1.01330
  1.1090   -0.99910
  1.1110   -0.98470
  1.1130   -0.96980
  1.1150   -0.95460
  1.1170   -0.93920
  1.1190   -0.92350
  1.1210   -0.90770
  1.1230   -0.89170
  1.1250   -0.87540
  1.1270   -0.85890
  1.1290   -0.84240
  1.1310   -0.82570
  1.1330   -0.80890
  1.1350   -0.79200
  1.1370   -0.77520
  1.1390   -0.75840
  1.1410   -0.74140
  1.1430   -0.72430
  1.1450   -0.70730
  1.1470   -0.69010
  1.1490   -0.67300
  1.1510   -0.65600
  1.1530   -0.63890
  1.1550   -0.62200
  1.1570   -0.60490
  1.1590   -0.58790
  1.1610   -0.57110
  1.1630   -0.55440
  1.1650   -0.53810
  1.1670   -0.52180
  1.1690   -0.50550
  1.1710   -0.48930
  1.1730   -0.47320
  1.1750   -0.45740
  1.1770   -0.44180
  1.1790   -0.42610
  1.1810   -0.41070
  1.1830   -0.39550
  1.1850   -0.38040
  1.1870   -0.36560
  1.1890   -0.35110
  1.1910   -0.33670
  1.1930   -0.32240
  1.1950   -0.30830
  1.1970   -0.29450
  1.1990   -0.28100
  1.2010   -0.26770
  1.2030   -0.25460
  1.2050   -0.24170
  1.2070   -0.22900
  1.2090   -0.21650
  1.2110   -0.20420
  1.2130   -0.19240
  1.2150   -0.18080
  1.2170   -0.16950
  1.2190   -0.15840
  1.2210   -0.14750
  1.2230   -0.13690
  1.2250   -0.12650
  1.2270   -0.11650
  1.2290   -0.10670
  1.2310   -0.09720
  1.2330   -0.08810
  1.2350   -0.07920
  1.2370   -0.07050
  1.2390   -0.06190
  1.2410   -0.05360
  1.2430   -0.04590
  1.2450   -0.03830
  1.2470   -0.03100
  1.2490   -0.02410
  1.2510   -0.01730
  1.2530   -0.01080
  1.2550   -0.00460
  1.2570    0.00120
  1.2590    0.00680
  1.2610    0.01220
  1.2630    0.01730
  1.2650    0.02200
  1.2670    0.02640
  1.2690    0.03060
  1.2710    0.03430
  1.2730    0.03780
  1.2750    0.04090
  1.2770    0.04380
  1.2790    0.04640
  1.2810    0.04870
  1.2830    0.05080
  1.2850    0.05260
  1.2870    0.05430
  1.2890    0.05550
  1.2910    0.05650
  1.2930    0.05710
  1.2950    0.05760
  1.2970    0.05790
  1.2990    0.05780
  1.3010    0.05750
  1.3030    0.05710
  1.3050    0.05640
  1.3070    0.05560
  1.3090    0.05470
  1.3110    0.05370
  1.3130    0.05250
  1.3150    0.05130
  1.3170    0.05000
  1.3190    0.04870
  1.3210    0.04720
  1.3230    0.04560
  1.3250    0.04410
  1.3270    0.04270
  1.3290    0.04130
  1.3310    0.03990
  1.3330    0.03870
  1.3350    0.03760
  1.3370    0.03640
  1.3390    0.03530
  1.3410    0.03440
  1.3430    0.03390
  1.3450    0.03350
  1.3470    0.03330
  1.3490    0.03320
  1.3510    0.03340
  1.3530    0.03390
  1.3550    0.03460
  1.3570    0.03540
  1.3590    0.03640
  1.3610    0.03770
  1.3630    0.03950
  1.3650    0.04170
  1.3670    0.04420
  1.3690    0.04700
  1.3710    0.04990
  1.3730    0.05310
  1.3750    0.05670
  1.3770    0.06060
  1.3790    0.06470
  1.3810    0.06920
  1.3830    0.07380
  1.3850    0.07850
  1.3870    0.08360
  1.3890    0.08880
  1.3910    0.09410
  1.3930    0.09940
  1.3950    0.10450
  1.3970    0.10950
  1.3990    0.11440
