# z (nm)   (kJ/mol)
  0.1830   -2.87900
  0.1850   -3.11500
  0.1870   -3.33800
  0.1890   -3.57100
  0.1910   -3.81200
  0.1930   -4.04100
  0.1950   -4.27200
  0.1970   -4.51800
  0.1990   -4.77400
  0.2010   -5.03700
  0.2030   -5.29900
  0.2050   -5.56200
  0.2070   -5.82700
  0.2090   -6.09000
  0.2110   -6.34800
  0.2130   -6.60300
  0.2150   -6.85200
  0.2170   -7.09300
  0.2190   -7.32700
  0.2210   -7.55400
  0.2230   -7.77200
  0.2250   -7.98200
  0.2270   -8.18400
  0.2290   -8.37700
  0.2310   -8.56100
  0.2330   -8.73500
  0.2350   -8.90000
  0.2370   -9.05500
  0.2390   -9.19900
  0.2410   -9.33400
  0.2430   -9.46000
  0.2450   -9.57600
  0.2470   -9.68300
  0.2490   -9.77900
  0.2510   -9.86700
  0.2530   -9.94600
  0.2550  -10.01700
  0.2570  -10.07900
  0.2590  -10.13300
  0.2610  -10.18000
  0.2630  -10.21900
  0.2650  -10.25000
  0.2670  -10.27400
  0.2690  -10.29000
  0.2710  -10.29900
  0.2730  -10.30300
  0.2750  -10.30200
  0.2770  -10.29600
  0.2790  -10.28600
  0.2810  -10.27000
  0.2830  -10.24900
  0.2850  -10.22200
  0.2870  -10.19100
  0.2890  -10.15600
  0.2910  -10.11700
  0.2930  -10.07400
  0.2950  -10.02900
  0.2970   -9.98200
  0.2990   -9.93300
  0.3010   -9.88100
  0.3030   -9.82700
  0.3050   -9.77200
  0.3070   -9.71600
  0.3090   -9.65800
  0.3110   -9.59900
  0.3130   -9.53800
  0.3150   -9.47800
  0.3170   -9.41600
  0.3190   -9.35400
  0.3210   -9.29100
  0.3230   -9.22800
  0.3250   -9.16400
  0.3270   -9.10100
  0.3290   -9.03700
  0.3310   -8.97300
  0.3330   -8.90900
  0.3350   -8.84500
  0.3370   -8.78000
  0.3390   -8.71600
  0.3410   -8.65200
  0.3430   -8.58700
  0.3450   -8.52200
  0.3470   -8.45600
  0.3490   -8.39100
  0.3510   -8.32600
  0.3530   -8.26100
  0.3550   -8.19500
  0.3570   -8.12900
  0.3590  -11.27900
  0.3610  -11.49100
  0.3630  -11.70000
  0.3650  -11.91400
  0.3670  -12.13000
  0.3690  -12.34700
  0.3710  -12.56700
  0.3730  -12.78700
  0.3750  -13.00200
  0.3770  -13.20900
  0.3790  -13.41200
  0.3810  -13.61100
  0.3830  -13.80600
  0.3850  -13.99500
  0.3870  -14.17800
  0.3890  -14.35300
  0.3910  -14.52000
  0.3930  -14.67800
  0.3950  -14.82800
  0.3970  -14.97000
  0.3990  -15.10200
  0.4010  -15.22300
  0.4030  -15.33600
  0.4050  -15.44000
  0.4070  -15.53600
  0.4090  -15.62100
  0.4110  -15.69500
  0.4130  -15.76100
  0.4150  -15.81800
  0.4170  -15.86600
  0.4190  -15.90300
  0.4210  -15.93100
  0.4230  -15.95000
  0.4250  -15.95900
  0.4270  -15.96000
  0.4290  -15.95100
  0.4310  -15.93300
  0.4330  -15.90600
  0.4350  -15.87100
  0.4370  -15.82800
  0.4390  -15.77800
  0.4410  -15.71900
  0.4430  -15.65200
  0.4450  -15.57800
  0.4470  -15.49800
  0.4490  -15.41000
  0.4510  -15.31700
  0.4530  -15.21800
  0.4550  -15.11300
  0.4570  -15.00300
  0.4590  -14.88900
  0.4610  -14.77000
  0.4630  -14.64900
  0.4650  -14.52300
  0.4670  -14.39500
  0.4690  -14.26500
  0.4710  -14.13300
  0.4730  -13.99900
  0.4750  -13.86400
  0.4770  -13.72700
  0.4790  -13.59000
  0.4810  -13.45100
  0.4830  -13.31300
  0.4850  -13.17500
  0.4870  -13.03600
  0.4890  -12.89700
  0.4910  -12.75800
  0.4930  -12.62000
  0.4950  -12.48300
  0.4970  -12.34700
  0.4990  -12.21200
  0.5010  -12.07700
  0.5030  -11.94400
  0.5050  -11.81200
  0.5070  -11.68100
  0.5090  -11.55100
  0.5110  -11.42200
  0.5130  -11.29400
  0.5150  -11.16800
  0.5170  -11.04300
  0.5190  -10.91900
  0.5210  -10.79700
  0.5230  -10.67600
  0.5250  -10.55600
  0.5270  -10.43800
  0.5290  -10.32000
  0.5310  -10.20400
  0.5330  -10.08900
  0.5350   -9.97500
  0.5370   -9.86100
  0.5390   -9.75000
  0.5410   -9.63900
  0.5430   -9.52900
  0.5450   -9.42000
  0.5470   -9.31200
  0.5490   -9.20600
  0.5510   -9.10100
  0.5530   -8.99600
  0.5550   -8.89300
  0.5570   -8.79000
  0.5590   -8.68800
  0.5610   -8.58700
  0.5630   -8.48800
  0.5650   -8.38900
  0.5670   -8.29100
  0.5690   -8.19400
  0.5710   -8.09800
  0.5730   -8.00300
  0.5750   -7.90900
  0.5770   -7.81500
  0.5790   -7.72300
  0.5810   -7.63200
  0.5830   -7.54100
  0.5850   -7.45200
  0.5870   -7.36300
  0.5890   -7.27600
  0.5910   -7.18900
  0.5930   -7.10300
  0.5950   -7.01900
  0.5970   -6.93500
  0.5990   -6.85200
  0.6010   -6.77100
  0.6030   -6.69000
  0.6050   -6.61000
  0.6070   -6.53100
  0.6090   -6.45200
  0.6110   -6.37500
  0.6130   -6.29800
  0.6150   -6.22300
  0.6170   -6.14800
  0.6190   -6.07400
  0.6210   -6.00000
  0.6230   -5.92700
  0.6250   -5.85500
  0.6270   -5.78400
  0.6290   -5.71400
  0.6310   -5.64400
  0.6330   -5.57500
  0.6350   -5.50700
  0.6370   -5.43900
  0.6390   -5.37200
  0.6410   -5.30600
  0.6430   -5.24000
  0.6450   -5.17500
  0.6470   -5.11000
  0.6490   -5.04600
  0.6510   -4.98300
  0.6530   -4.92000
  0.6550   -4.85800
  0.6570   -4.79700
  0.6590   -4.73600
  0.6610   -4.67600
  0.6630   -4.61700
  0.6650   -4.55700
  0.6670   -4.49900
  0.6690   -4.44100
  0.6710   -4.38400
  0.6730   -4.32800
  0.6750   -4.27200
  0.6770   -4.21600
  0.6790   -4.16100
  0.6810   -4.10700
  0.6830   -4.05300
  0.6850   -4.00000
  0.6870   -3.94800
  0.6890   -3.89600
  0.6910   -3.84500
  0.6930   -3.79400
  0.6950   -3.74300
  0.6970   -3.69400
  0.6990   -3.64500
  0.7010   -3.59700
  0.7030   -3.54900
  0.7050   -3.50200
  0.7070   -3.45500
  0.7090   -3.40900
  0.7110   -3.36400
  0.7130   -3.31900
  0.7150   -3.27500
  0.7170   -3.23200
  0.7190   -3.18900
  0.7210   -3.14700
  0.7230   -3.10600
  0.7250   -3.06500
  0.7270   -3.02500
  0.7290   -2.98500
  0.7310   -2.94600
  0.7330   -2.90800
  0.7350   -2.87000
  0.7370   -2.83300
  0.7390   -2.79700
  0.7410   -2.76100
  0.7430   -2.72600
  0.7450   -2.69200
  0.7470   -2.65800
  0.7490   -2.62500
  0.7510   -2.59300
  0.7530   -2.56100
  0.7550   -2.53000
  0.7570   -2.49900
  0.7590   -2.46900
  0.7610   -2.43900
  0.7630   -2.41000
  0.7650   -2.38200
  0.7670   -2.35400
  0.7690   -2.32700
  0.7710   -2.30000
  0.7730   -2.27400
  0.7750   -2.24900
  0.7770   -2.22300
  0.7790   -2.19900
  0.7810   -2.17500
  0.7830   -2.15100
  0.7850   -2.12800
  0.7870   -2.10500
  0.7890   -2.08300
  0.7910   -2.06100
  0.7930   -2.04000
  0.7950   -2.01900
  0.7970   -1.99800
  0.7990   -1.97700
  0.8010   -1.95700
  0.8030   -1.93700
  0.8050   -1.91800
  0.8070   -1.89800
  0.8090   -1.88000
  0.8110   -1.86100
  0.8130   -1.84300
  0.8150   -1.82500
  0.8170   -1.80700
  0.8190   -1.79000
  0.8210   -1.77300
  0.8230   -1.75600
  0.8250   -1.73900
  0.8270   -1.72200
  0.8290   -1.70600
  0.8310   -1.69000
  0.8330   -1.67400
  0.8350   -1.65800
  0.8370   -1.64300
  0.8390   -1.62800
  0.8410   -1.61200
  0.8430   -1.59700
  0.8450   -1.58300
  0.8470   -1.56800
  0.8490   -1.55400
  0.8510   -1.53900
  0.8530   -1.52500
  0.8550   -1.51100
  0.8570   -1.49800
  0.8590   -1.48400
  0.8610   -1.47100
  0.8630   -2.79200
  0.8650   -2.96400
  0.8670   -3.13900
  0.8690   -3.31500
  0.8710   -3.50200
  0.8730   -3.69300
  0.8750   -3.88500
  0.8770   -4.08300
  0.8790   -4.28400
  0.8810   -4.48900
  0.8830   -4.69500
  0.8850   -4.90300
  0.8870   -5.11500
  0.8890   -5.32700
  0.8910   -5.53800
  0.8930   -5.74800
  0.8950   -5.95500
  0.8970   -6.16000
  0.8990   -6.36100
  0.9010   -6.55800
  0.9030   -6.75000
  0.9050   -6.93800
  0.9070   -7.12200
  0.9090   -7.30000
  0.9110   -7.47200
  0.9130   -7.63700
  0.9150   -7.79700
  0.9170   -7.95100
  0.9190   -8.09800
  0.9210   -8.23700
  0.9230   -8.37000
  0.9250   -8.49600
  0.9270   -8.61500
  0.9290   -8.72500
  0.9310   -8.82900
  0.9330   -8.92600
  0.9350   -9.01400
  0.9370   -9.09500
  0.9390   -9.16900
  0.9410   -9.23600
  0.9430   -9.29600
  0.9450   -9.34800
  0.9470   -9.39400
  0.9490   -9.43200
  0.9510   -9.46300
  0.9530   -9.48800
  0.9550   -9.50600
  0.9570   -9.51800
  0.9590   -9.52500
  0.9610   -9.52500
  0.9630   -9.51900
  0.9650   -9.50700
  0.9670   -9.49000
  0.9690   -9.46800
  0.9710   -9.44000
  0.9730   -9.40800
  0.9750   -9.37100
  0.9770   -9.33100
  0.9790   -9.28700
  0.9810   -9.23900
  0.9830   -9.18800
  0.9850   -9.13400
  0.9870   -9.07600
  0.9890   -9.01500
  0.9910   -8.95200
  0.9930   -8.88600
  0.9950   -8.81800
  0.9970   -8.74800
  0.9990   -8.67700
  1.0010   -8.60400
  1.0030   -8.53000
  1.0050   -8.45500
  1.0070   -8.37800
  1.0090   -8.30100
  1.0110   -8.22300
  1.0130   -8.14400
  1.0150   -8.06400
  1.0170   -7.98300
  1.0190   -7.90300
  1.0210   -7.82100
  1.0230   -7.73900
  1.0250   -7.65700
  1.0270   -7.57600
  1.0290   -7.49400
  1.0310   -7.41200
  1.0330   -7.33000
  1.0350   -7.24800
  1.0370   -7.16500
  1.0390   -7.08400
  1.0410   -7.00200
  1.0430   -6.92000
  1.0450   -6.83800
  1.0470   -6.75700
  1.0490   -6.67500
  1.0510   -6.59400
  1.0530   -6.51300
  1.0550   -6.43200
  1.0570   -6.35100
  1.0590   -6.27100
  1.0610   -6.19100
  1.0630   -6.11100
  1.0650   -6.03200
  1.0670   -5.95300
  1.0690   -5.87400
  1.0710   -5.79500
  1.0730   -5.71700
  1.0750   -5.64000
  1.0770   -5.56200
  1.0790   -5.48500
  1.0810   -5.40900
  1.0830   -5.33300
  1.0850   -5.25700
  1.0870   -5.18100
  1.0890   -5.10600
  1.0910   -5.03100
  1.0930   -4.95700
  1.0950   -4.88400
  1.0970   -4.81100
  1.0990   -4.73800
  1.1010   -4.66700
  1.1030   -4.59500
  1.1050   -4.52500
  1.1070   -4.45500
  1.1090   -4.38500
  1.1110   -4.31600
  1.1130   -4.24800
  1.1150   -4.18100
  1.1170   -4.11400
  1.1190   -4.04700
  1.1210   -3.98100
  1.1230   -3.91600
  1.1250   -3.85200
  1.1270   -3.78800
  1.1290   -3.72500
  1.1310   -3.66200
  1.1330   -3.60100
  1.1350   -3.54000
  1.1370   -3.47900
  1.1390   -3.41900
  1.1410   -3.36000
  1.1430   -3.30200
  1.1450   -3.24400
  1.1470   -3.18700
  1.1490   -3.13000
  1.1510   -3.07500
  1.1530   -3.02100
  1.1550   -2.96700
  1.1570   -2.91300
  1.1590   -2.86100
  1.1610   -2.80900
  1.1630   -2.75800
  1.1650   -2.70800
  1.1670   -2.65800
  1.1690   -2.60900
  1.1710   -2.56100
  1.1730   -2.51400
  1.1750   -2.46700
  1.1770   -2.42100
  1.1790   -2.37600
  1.1810   -2.33200
  1.1830   -2.28800
  1.1850   -2.24500
  1.1870   -2.20300
  1.1890   -2.16200
  1.1910   -2.12200
  1.1930   -2.08300
  1.1950   -2.04400
  1.1970   -2.00600
  1.1990   -1.96900
  1.2010   -1.93300
  1.2030   -1.89800
  1.2050   -1.86400
  1.2070   -1.83000
  1.2090   -1.79700
  1.2110   -1.76500
  1.2130   -1.73400
  1.2150   -1.70400
  1.2170   -1.67500
  1.2190   -1.64700
  1.2210   -1.61900
  1.2230   -1.59200
  1.2250   -1.56700
  1.2270   -1.54200
  1.2290   -1.51800
  1.2310   -1.49500
  1.2330   -1.47200
  1.2350   -1.45000
  1.2370   -1.43000
  1.2390   -1.41000
  1.2410   -1.39000
  1.2430   -1.37100
  1.2450   -1.35400
  1.2470   -1.33700
  1.2490   -1.32100
  1.2510   -1.30500
  1.2530   -1.29000
  1.2550   -1.27600
  1.2570   -1.26300
  1.2590   -1.25000
  1.2610   -1.23700
  1.2630   -1.22600
  1.2650   -1.21400
  1.2670   -1.20400
  1.2690   -1.19400
  1.2710   -1.18400
  1.2730   -1.17500
  1.2750   -1.16600
  1.2770   -1.15800
  1.2790   -1.15000
  1.2810   -1.14200
  1.2830   -1.13500
  1.2850   -1.12800
  1.2870   -1.12100
  1.2890   -1.11500
  1.2910   -1.10800
  1.2930   -1.10200
  1.2950   -1.09600
  1.2970   -1.09000
  1.2990   -1.08500
  1.3010   -1.07900
  1.3030   -1.07300
  1.3050   -1.06800
  1.3070   -1.06200
  1.3090   -1.05600
  1.3110   -1.05100
  1.3130   -1.04600
  1.3150   -1.04000
  1.3170   -1.03500
  1.3190   -1.02900
  1.3210   -1.02300
  1.3230   -1.01800
  1.3250   -1.01200
  1.3270   -1.00600
  1.3290   -1.00000
  1.3310   -0.99400
  1.3330   -0.98800
  1.3350   -0.98200
  1.3370   -0.97500
  1.3390   -0.96900
  1.3410   -0.96200
  1.3430   -0.95500
  1.3450   -0.94800
  1.3470   -0.94100
  1.3490   -0.93400
  1.3510   -0.92700
  1.3530   -0.92000
  1.3550   -0.91200
  1.3570   -0.90400
  1.3590   -0.89600
  1.3610   -0.88900
  1.3630   -0.88000
  1.3650   -0.87200
  1.3670   -0.86400
  1.3690   -0.85500
  1.3710   -0.84700
  1.3730   -0.83800
  1.3750   -0.83000
  1.3770   -0.82100
  1.3790   -0.81200
  1.3810   -0.80300
  1.3830   -0.79400
  1.3850   -0.78500
  1.3870   -0.77500
  1.3890   -0.76600
  1.3910   -0.75700
  1.3930   -0.74800
  1.3950   -0.73900
  1.3970   -0.72900
  1.3990   -0.72000
